#where:  midlatitude summer  (AFGL Atmospheric Constituent Profiles)
#                                           molecular  concentrations 
#what:   z   pressure   temp     H2O        CO2        O3         N2O        CO         CH4        N2       O2
#units: km  g/(cm.s^2)     K     ppV        ppV        ppV        ppV        ppV        ppV        ppV      ppm
   0.00  1.0130E+06   294.20   1.876E-02  3.300E-04  3.017E-08  3.200E-07  1.500E-07  1.700E-06  0.781    2.090E+05 
   1.00  9.0200E+05   289.70   1.378E-02  3.300E-04  3.337E-08  3.200E-07  1.450E-07  1.700E-06  0.781    2.090E+05 
   2.00  8.0200E+05   285.20   9.680E-03  3.300E-04  3.694E-08  3.200E-07  1.399E-07  1.700E-06  0.781    2.090E+05
   3.00  7.1000E+05   279.20   5.984E-03  3.300E-04  4.222E-08  3.200E-07  1.349E-07  1.700E-06  0.781    2.090E+05
   4.00  6.2800E+05   273.20   3.813E-03  3.300E-04  4.821E-08  3.200E-07  1.312E-07  1.697E-06  0.781    2.090E+05
   5.00  5.5400E+05   267.20   2.225E-03  3.300E-04  5.512E-08  3.200E-07  1.303E-07  1.687E-06  0.781    2.090E+05
   6.00  4.8700E+05   261.20   1.510E-03  3.300E-04  6.408E-08  3.200E-07  1.288E-07  1.672E-06  0.781    2.090E+05
   7.00  4.2600E+05   254.70   1.020E-03  3.300E-04  7.764E-08  3.200E-07  1.247E-07  1.649E-06  0.781    2.090E+05
   8.00  3.7200E+05   248.20   6.464E-04  3.300E-04  9.126E-08  3.195E-07  1.185E-07  1.629E-06  0.781    2.090E+05
   9.00  3.2400E+05   241.70   4.129E-04  3.300E-04  1.111E-07  3.163E-07  1.094E-07  1.615E-06  0.781    2.090E+05
  10.00  2.8100E+05   235.30   2.472E-04  3.300E-04  1.304E-07  3.096E-07  9.962E-08  1.579E-06  0.781    2.090E+05
  11.00  2.4300E+05   228.80   9.556E-05  3.300E-04  1.793E-07  2.989E-07  8.964E-08  1.542E-06  0.781    2.090E+05
  12.00  2.0900E+05   222.30   2.944E-05  3.300E-04  2.230E-07  2.936E-07  7.814E-08  1.508E-06  0.781    2.090E+05
  13.00  1.7900E+05   215.80   8.000E-06  3.300E-04  3.000E-07  2.860E-07  6.374E-08  1.479E-06  0.781    2.090E+05
  14.00  1.5300E+05   215.70   5.000E-06  3.300E-04  4.400E-07  2.800E-07  5.025E-08  1.451E-06  0.781    2.090E+05
  15.00  1.3000E+05   215.70   3.400E-06  3.300E-04  5.000E-07  2.724E-07  3.941E-08  1.422E-06  0.781    2.090E+05
  16.00  1.1100E+05   215.70   3.300E-06  3.300E-04  6.000E-07  2.611E-07  3.069E-08  1.390E-06  0.781    2.090E+05
  17.00  9.5000E+04   215.70   3.200E-06  3.300E-04  7.000E-07  2.421E-07  2.489E-08  1.356E-06  0.781    2.090E+05
  18.00  8.1200E+04   216.80   3.150E-06  3.300E-04  1.000E-06  2.174E-07  1.966E-08  1.323E-06  0.781    2.090E+05
  19.00  6.9500E+04   217.90   3.200E-06  3.300E-04  1.500E-06  1.843E-07  1.549E-08  1.281E-06  0.781    2.090E+05
  20.00  5.9500E+04   219.20   3.300E-06  3.300E-04  2.000E-06  1.607E-07  1.331E-08  1.224E-06  0.781    2.090E+05
  21.00  5.1000E+04   220.40   3.450E-06  3.300E-04  2.400E-06  1.323E-07  1.232E-08  1.154E-06  0.781    2.090E+05
  22.00  4.3700E+04   221.60   3.600E-06  3.300E-04  2.900E-06  1.146E-07  1.232E-08  1.066E-06  0.781    2.090E+05
  23.00  3.7600E+04   222.80   3.850E-06  3.300E-04  3.400E-06  1.035E-07  1.307E-08  9.730E-07  0.781    2.090E+05
  24.00  3.2200E+04   223.90   4.000E-06  3.300E-04  4.000E-06  9.622E-08  1.400E-08  8.800E-07  0.781    2.090E+05
  25.00  2.7700E+04   225.10   4.200E-06  3.300E-04  4.800E-06  8.958E-08  1.521E-08  7.888E-07  0.781    2.090E+05
  27.50  1.9070E+04   228.45   4.450E-06  3.300E-04  6.000E-06  8.006E-08  1.722E-08  7.046E-07  0.781    2.090E+05
  30.00  1.3200E+04   233.70   4.700E-06  3.300E-04  7.000E-06  6.698E-08  1.995E-08  6.315E-07  0.781    2.090E+05
  32.50   9300.       239.00   4.850E-06  3.300E-04  8.100E-06  4.958E-08  2.266E-08  5.592E-07  0.781    2.090E+05
  35.00   6520.       245.20   4.950E-06  3.300E-04  8.900E-06  3.695E-08  2.487E-08  5.008E-07  0.781    2.090E+05
  37.50   4640.       251.30   5.000E-06  3.300E-04  8.700E-06  2.519E-08  2.716E-08  4.453E-07  0.781    2.090E+05
  40.00   3330.       257.50   5.100E-06  3.300E-04  7.550E-06  1.736E-08  2.962E-08  3.916E-07  0.781    2.090E+05
  42.50   2410.       263.70   5.300E-06  3.300E-04  5.900E-06  1.158E-08  3.138E-08  3.389E-07  0.781    2.090E+05
  45.00   1760.       269.90   5.450E-06  3.300E-04  4.500E-06  7.665E-09  3.307E-08  2.873E-07  0.781    2.090E+05
  47.50   1290.       275.20   5.500E-06  3.300E-04  3.500E-06  5.321E-09  3.487E-08  2.384E-07  0.781    2.090E+05
  50.00   951.0       275.70   5.500E-06  3.300E-04  2.800E-06  3.215E-09  3.645E-08  1.944E-07  0.781    2.090E+05
  55.00   515.0       269.30   5.350E-06  3.300E-04  1.800E-06  2.030E-09  3.923E-08  1.574E-07  0.781    2.090E+05
  60.00   272.0       257.10   5.000E-06  3.300E-04  1.300E-06  1.397E-09  4.673E-08  1.500E-07  0.781    2.090E+05
  65.00   139.0       240.10   4.400E-06  3.300E-04  8.000E-07  1.020E-09  6.404E-08  1.500E-07  0.781    2.090E+05
  70.00   67.00       218.10   3.700E-06  3.300E-04  4.000E-07  7.772E-10  1.177E-07  1.500E-07  0.781    2.090E+05
  75.00   30.00       196.10   2.950E-06  3.300E-04  1.900E-07  6.257E-10  2.935E-07  1.500E-07  0.781    2.090E+05
  80.00   12.00       174.10   2.100E-06  3.280E-04  2.000E-07  5.166E-10  6.815E-07  1.500E-07  0.781    2.090E+05
  85.00   4.480       165.10   1.330E-06  3.200E-04  5.700E-07  4.352E-10  1.465E-06  1.500E-07  0.781    2.000E+05
  90.00   1.640       165.00   8.500E-07  3.100E-04  7.500E-07  3.727E-10  2.849E-06  1.400E-07  0.780    1.900E+05
  95.00  0.6250       178.30   5.400E-07  2.700E-04  7.000E-07  3.237E-10  5.166E-06  1.300E-07  0.779    1.800E+05
 100.00  0.2580       190.50   4.000E-07  1.950E-04  4.000E-07  2.844E-10  1.008E-05  1.200E-07  0.777    1.600E+05
 105.00  0.1170       222.20   3.400E-07  1.100E-04  2.000E-07  2.524E-10  1.865E-05  1.100E-07  0.774    1.400E+05
 110.00  6.1100E-02   262.40   2.800E-07  6.000E-05  5.000E-08  2.260E-10  2.863E-05  9.500E-08  0.770    1.200E+05
 115.00  3.5600E-02   316.80   2.400E-07  4.000E-05  5.000E-09  2.039E-10  3.890E-05  6.000E-08  0.765    9.400E+04
 120.00  2.2700E-02   380.00   2.000E-07  3.500E-05  5.000E-10  1.851E-10  5.000E-05  3.000E-08  0.760    7.250E+04
#
# vertical_columns:   calculating molecular amount for z>   0.000   given  50 path grid points   0.0 to 120.0    quad routine: T
# column density  (cm-2)     sum gases  H2O       CO2       O3        N2O       CO        CH4       N2        
#                            2.161E+25  9.960E+22 7.130E+21 9.015E+18 6.390E+18 2.363E+18 3.413E+19 1.687E+25

