#where: US standard 1976 (AFGL Atmospheric Constituent Profiles)
#
#what: altitude pressure temperature density H2O   CO2        O3        N2O       CO        CH4       O2
#units: km mb            K       cm-3     ppm      ppm        ppm       ppm       ppm       ppm       ppm
    0.0  1.013E+03  288.20  2.548E+19   7.745E+03  330.     2.660E-02 0.320     0.150      1.70     2.090E+05
    1.0  8.988E+02  281.70  2.313E+19   6.071E+03  330.     2.931E-02 0.320     0.145      1.70     2.090E+05
    2.0  7.950E+02  275.20  2.094E+19   4.631E+03  330.     3.237E-02 0.320     0.140      1.70     2.090E+05
    3.0  7.012E+02  268.70  1.891E+19   3.182E+03  330.     3.318E-02 0.320     0.135      1.70     2.090E+05
    4.0  6.166E+02  262.20  1.704E+19   2.158E+03  330.     3.387E-02 0.320     0.131      1.70     2.090E+05
    5.0  5.405E+02  255.70  1.532E+19   1.397E+03  330.     3.768E-02 0.320     0.130      1.70     2.090E+05
    6.0  4.722E+02  249.20  1.373E+19    925.      330.     4.112E-02 0.320     0.129      1.70     2.090E+05
    7.0  4.111E+02  242.70  1.228E+19    572.      330.     5.009E-02 0.320     0.125      1.70     2.090E+05
    8.0  3.565E+02  236.20  1.094E+19    367.      330.     5.966E-02 0.320     0.119      1.70     2.090E+05
    9.0  3.080E+02  229.70  9.719E+18    158.      330.     9.168E-02 0.319     0.109      1.69     2.090E+05
   10.0  2.650E+02  223.30  8.602E+18    70.0      330.     0.131     0.318     9.962E-02  1.68     2.090E+05
   11.0  2.270E+02  216.80  7.589E+18    36.1      330.     0.215     0.314     8.964E-02  1.67     2.090E+05
   12.0  1.940E+02  216.70  6.489E+18    19.1      330.     0.310     0.310     7.814E-02  1.66     2.090E+05
   13.0  1.658E+02  216.70  5.546E+18    10.9      330.     0.385     0.305     6.374E-02  1.64     2.090E+05
   14.0  1.417E+02  216.70  4.739E+18    5.93      330.     0.503     0.300     5.025E-02  1.63     2.090E+05
   15.0  1.211E+02  216.70  4.050E+18    5.00      330.     0.650     0.294     3.941E-02  1.61     2.090E+05
   16.0  1.035E+02  216.70  3.462E+18    3.95      330.     0.870     0.288     3.069E-02  1.58     2.090E+05
   17.0  8.850E+01  216.70  2.960E+18    3.85      330.      1.19     0.278     2.489E-02  1.55     2.090E+05
   18.0  7.565E+01  216.70  2.530E+18    3.83      330.      1.59     0.267     1.966E-02  1.52     2.090E+05
   19.0  6.467E+01  216.70  2.163E+18    3.85      330.      2.03     0.253     1.549E-02  1.48     2.090E+05
   20.0  5.529E+01  216.70  1.849E+18    3.90      330.      2.58     0.236     1.331E-02  1.42     2.090E+05
   21.0  4.729E+01  217.60  1.575E+18    3.97      330.      3.03     0.219     1.232E-02  1.36     2.090E+05
   22.0  4.047E+01  218.60  1.342E+18    4.07      330.      3.65     0.205     1.232E-02  1.27     2.090E+05
   23.0  3.467E+01  219.60  1.144E+18    4.20      330.      4.17     0.197     1.307E-02  1.19     2.090E+05
   24.0  2.972E+01  220.60  9.765E+17    4.30      330.      4.63     0.188     1.400E-02  1.12     2.090E+05
   25.0  2.549E+01  221.60  8.337E+17    4.43      330.      5.12     0.176     1.498E-02  1.05     2.090E+05
   27.5  1.743E+01  224.00  5.640E+17    4.57      330.      5.80     0.159     1.598E-02 0.987     2.090E+05
   30.0  1.197E+01  226.50  3.830E+17    4.72      330.      6.55     0.142     1.710E-02 0.914     2.090E+05
   32.5  8.010      230.00  2.524E+17    4.82      330.      7.37     0.116     1.850E-02 0.830     2.090E+05
   35.0  5.746      236.50  1.761E+17    4.90      330.      7.84     9.275E-02 2.009E-02 0.746     2.090E+05
   37.5  4.150      242.90  1.238E+17    4.95      330.      7.80     6.693E-02 2.220E-02 0.662     2.090E+05
   40.0  2.871      250.40  8.310E+16    5.03      330.      7.30     4.513E-02 2.497E-02 0.564     2.090E+05
   42.5  2.060      257.30  5.803E+16    5.15      330.      6.20     2.751E-02 2.824E-02 0.461     2.090E+05
   45.0  1.491      264.20  4.090E+16    5.22      330.      5.25     1.591E-02 3.241E-02 0.363     2.090E+05
   47.5  1.090      270.60  2.920E+16    5.25      330.      4.10     9.378E-03 3.717E-02 0.277     2.090E+05
   50.0  7.978E-01  270.70  2.136E+16    5.22      330.      3.10     4.752E-03 4.597E-02 0.210     2.090E+05
   55.0  4.250E-01  260.80  1.181E+16    5.10      330.      1.80     3.000E-03 6.639E-02 0.165     2.090E+05
   60.0  2.190E-01  247.00  6.426E+15    4.75      330.      1.10     2.065E-03 0.107     0.150     2.090E+05
   65.0  1.090E-01  233.30  3.386E+15    4.20      330.     0.700     1.507E-03 0.186     0.150     2.090E+05
   70.0  5.220E-02  219.60  1.723E+15    3.50      330.     0.300     1.149E-03 0.306     0.150     2.090E+05
   75.0  2.400E-02  208.40  8.347E+14    2.83      330.     0.250     8.890E-04 0.637     0.150     2.090E+05
   80.0  1.050E-02  198.60  3.832E+14    2.05      328.     0.300     7.056E-04  1.50     0.150     2.090E+05
   85.0  4.460E-03  188.90  1.711E+14    1.33      320.     0.500     5.716E-04  3.24     0.150     2.000E+05
   90.0  1.840E-03  186.90  7.136E+13   0.850      310.     0.700     4.708E-04  5.84     0.140     1.900E+05
   95.0  7.600E-04  188.40  2.924E+13   0.540      270.     0.700     3.932E-04  10.1     0.130     1.800E+05
  100.0  3.200E-04  195.10  1.189E+13   0.400      195.     0.400     3.323E-04  16.9     0.120     1.600E+05
  105.0  1.450E-04  208.80  5.033E+12   0.340      110.     0.200     2.837E-04  24.7     0.110     1.400E+05
  110.0  7.100E-05  240.00  2.144E+12   0.280      60.0     5.000E-02 2.443E-04  33.6     9.500E-02 1.200E+05
  115.0  4.010E-05  300.00  9.688E+11   0.240      40.0     5.000E-03 2.120E-04  41.5     6.000E-02 9.400E+04
  120.0  2.540E-05  360.00  5.114E+11   0.200      35.0     5.000E-04 1.851E-04  50.0     3.000E-02 7.250E+04
